400     2.660E-006 0.5     Wavelenght(nm) W/m**2/str/nm/SAND-3 integration_time(s)
405     2.558E-006
410     2.459E-006
415     2.362E-006
420     2.268E-006
425     2.177E-006
430     2.088E-006
435     2.001E-006
440     1.917E-006
445     1.836E-006
450     1.757E-006
455     1.681E-006
460     1.607E-006
465     1.536E-006
470     1.468E-006
475     1.402E-006
480     1.338E-006
485     1.277E-006
490     1.219E-006
495     1.163E-006
500     1.110E-006
505     1.059E-006
510     1.011E-006
515     9.652E-007
520     9.222E-007
525     8.817E-007
530     8.437E-007
535     8.083E-007
540     7.754E-007
545     7.451E-007
550     7.174E-007
555     6.922E-007
560     6.695E-007
565     6.494E-007
570     6.319E-007
575     6.169E-007
580     6.045E-007
585     5.946E-007
590     5.872E-007
595     5.824E-007
600     5.802E-007
605     5.805E-007
610     5.834E-007
615     5.888E-007
620     5.967E-007
625     6.073E-007
630     6.203E-007
635     6.359E-007
640     6.541E-007
645     6.748E-007
650     6.981E-007
655     7.239E-007
660     7.523E-007
665     7.832E-007
670     8.167E-007
675     8.527E-007
680     8.913E-007
685     9.324E-007
690     9.761E-007
695     1.022E-006
700     1.071E-006
705     1.122E-006
710     1.176E-006
715     1.233E-006
720     1.292E-006
725     1.353E-006
730     1.417E-006
